wavelength_nm,A_PG,A_PG_Fe
255.0000,0.2141,0.0138
256.0000,0.2150,0.0298
257.0000,0.2217,0.0541
258.0000,0.2366,0.0912
259.0000,0.2543,0.1292
260.0000,0.2772,0.1660
261.0000,0.2981,0.2602
262.0000,0.3203,0.4109
263.0000,0.3424,0.4561
264.0000,0.3679,0.5019
265.0000,0.3905,0.5525
266.0000,0.4142,0.6111
267.0000,0.4352,0.6715
268.0000,0.4548,0.7234
269.0000,0.4755,0.7702
270.0000,0.4946,0.8123
271.0000,0.5168,0.8484
272.0000,0.5369,0.8779
273.0000,0.5590,0.9035
274.0000,0.5793,0.9198
275.0000,0.6045,0.9355
276.0000,0.6227,0.9458
277.0000,0.6478,0.9534
278.0000,0.6654,0.9582
279.0000,0.6898,0.9613
280.0000,0.7067,0.9629
281.0000,0.7316,0.9629
282.0000,0.7466,0.9630
283.0000,0.7671,0.9644
284.0000,0.7836,0.9645
285.0000,0.8006,0.9660
286.0000,0.8125,0.9677
287.0000,0.8241,0.9707
288.0000,0.8338,0.9736
289.0000,0.8405,0.9766
290.0000,0.8436,0.9796
291.0000,0.8432,0.9830
292.0000,0.8417,0.9885
293.0000,0.8402,0.9942
294.0000,0.8387,0.9990
295.0000,0.8385,1.0051
296.0000,0.8414,1.0103
297.0000,0.8459,1.0155
298.0000,0.8535,1.0207
299.0000,0.8622,1.0267
300.0000,0.8723,1.0317
301.0000,0.8833,1.0371
302.0000,0.8966,1.0420
303.0000,0.9094,1.0455
304.0000,0.9223,1.0495
305.0000,0.9345,1.0517
306.0000,0.9511,1.0544
307.0000,0.9628,1.0561
308.0000,0.9757,1.0576
309.0000,0.9865,1.0578
310.0000,0.9996,1.0578
311.0000,1.0101,1.0578
312.0000,1.0190,1.0578
313.0000,1.0279,1.0577
314.0000,1.0366,1.0561
315.0000,1.0423,1.0532
316.0000,1.0448,1.0502
317.0000,1.0436,1.0472
318.0000,1.0362,1.0443
319.0000,1.0267,1.0413
320.0000,1.0120,1.0383
321.0000,0.9990,1.0354
322.0000,0.9802,1.0324
323.0000,0.9608,1.0284
324.0000,0.9403,1.0236
325.0000,0.9187,1.0200
326.0000,0.8960,1.0169
327.0000,0.8754,1.0147
328.0000,0.8547,1.0125
329.0000,0.8336,1.0118
330.0000,0.8133,1.0101
331.0000,0.7883,1.0089
332.0000,0.7643,1.0089
333.0000,0.7376,1.0079
334.0000,0.7121,1.0064
335.0000,0.6807,1.0060
336.0000,0.6534,1.0038
337.0000,0.6188,1.0032
338.0000,0.5914,1.0032
339.0000,0.5561,1.0006
340.0000,0.5295,0.9990
341.0000,0.4961,0.9961
342.0000,0.4733,0.9946
343.0000,0.4424,0.9902
344.0000,0.4243,0.9858
345.0000,0.3999,0.9826
346.0000,0.3844,0.9768
347.0000,0.3646,0.9722
348.0000,0.3503,0.9660
349.0000,0.3331,0.9589
350.0000,0.3235,0.9519
351.0000,0.3124,0.9423
352.0000,0.3035,0.9335
353.0000,0.2960,0.9222
354.0000,0.2916,0.9102
355.0000,0.2883,0.8965
356.0000,0.2862,0.8828
357.0000,0.2839,0.8678
358.0000,0.2817,0.8530
359.0000,0.2803,0.8374
360.0000,0.2786,0.8210
361.0000,0.2774,0.8057
362.0000,0.2774,0.7879
363.0000,0.2755,0.7709
364.0000,0.2735,0.7541
365.0000,0.2720,0.7363
366.0000,0.2684,0.7174
367.0000,0.2673,0.7015
368.0000,0.2650,0.6819
369.0000,0.2620,0.6673
370.0000,0.2577,0.6463
371.0000,0.2559,0.6280
372.0000,0.2531,0.6061
373.0000,0.2515,0.5909
374.0000,0.2486,0.5675
375.0000,0.2485,0.5539
376.0000,0.2458,0.5366
377.0000,0.2454,0.5245
378.0000,0.2429,0.5114
379.0000,0.2424,0.4993
380.0000,0.2394,0.4865
381.0000,0.2368,0.4758
382.0000,0.2345,0.4639
383.0000,0.2301,0.4529
384.0000,0.2256,0.4435
385.0000,0.2201,0.4326
386.0000,0.2138,0.4225
387.0000,0.2069,0.4144
388.0000,0.1978,0.4049
389.0000,0.1897,0.3952
390.0000,0.1823,0.3871
391.0000,0.1747,0.3780
392.0000,0.1676,0.3702
393.0000,0.1625,0.3625
394.0000,0.1571,0.3536
395.0000,0.1522,0.3467
396.0000,0.1488,0.3397
397.0000,0.1458,0.3323
398.0000,0.1429,0.3260
399.0000,0.1399,0.3177
400.0000,0.1382,0.3112
401.0000,0.1354,0.3027
402.0000,0.1338,0.2965
403.0000,0.1309,0.2892
404.0000,0.1308,0.2832
405.0000,0.1308,0.2773
406.0000,0.1293,0.2714
407.0000,0.1293,0.2669
408.0000,0.1293,0.2623
409.0000,0.1293,0.2564
410.0000,0.1293,0.2505
411.0000,0.1293,0.2448
412.0000,0.1293,0.2407
413.0000,0.1298,0.2370
414.0000,0.1308,0.2319
415.0000,0.1308,0.2290
416.0000,0.1308,0.2249
417.0000,0.1314,0.2201
418.0000,0.1322,0.2172
419.0000,0.1322,0.2142
420.0000,0.1330,0.2112
421.0000,0.1337,0.2083
422.0000,0.1337,0.2045
423.0000,0.1337,0.2009
424.0000,0.1337,0.1979
425.0000,0.1337,0.1969
426.0000,0.1347,0.1949
427.0000,0.1351,0.1919
428.0000,0.1351,0.1889
429.0000,0.1351,0.1860
430.0000,0.1363,0.1830
431.0000,0.1365,0.1813
432.0000,0.1352,0.1798
433.0000,0.1364,0.1783
434.0000,0.1365,0.1754
435.0000,0.1365,0.1753
436.0000,0.1365,0.1725
437.0000,0.1364,0.1723
438.0000,0.1351,0.1696
439.0000,0.1351,0.1692
440.0000,0.1351,0.1667
441.0000,0.1348,0.1667
442.0000,0.1337,0.1661
443.0000,0.1337,0.1638
444.0000,0.1337,0.1638
445.0000,0.1332,0.1629
446.0000,0.1322,0.1610
447.0000,0.1317,0.1599
448.0000,0.1308,0.1581
449.0000,0.1301,0.1581
450.0000,0.1287,0.1581
451.0000,0.1279,0.1581
452.0000,0.1271,0.1565
453.0000,0.1256,0.1552
454.0000,0.1250,0.1552
455.0000,0.1232,0.1552
456.0000,0.1222,0.1542
457.0000,0.1201,0.1538
458.0000,0.1193,0.1527
459.0000,0.1171,0.1523
460.0000,0.1164,0.1523
461.0000,0.1140,0.1523
462.0000,0.1135,0.1523
463.0000,0.1109,0.1510
464.0000,0.1107,0.1509
465.0000,0.1079,0.1495
466.0000,0.1078,0.1495
467.0000,0.1049,0.1495
468.0000,0.1033,0.1494
469.0000,0.1005,0.1479
470.0000,0.0990,0.1466
471.0000,0.0973,0.1466
472.0000,0.0946,0.1466
473.0000,0.0931,0.1466
474.0000,0.0916,0.1462
475.0000,0.0901,0.1452
476.0000,0.0882,0.1447
477.0000,0.0857,0.1437
478.0000,0.0837,0.1437
479.0000,0.0813,0.1437
480.0000,0.0798,0.1437
481.0000,0.0783,0.1430
482.0000,0.0769,0.1423
483.0000,0.0746,0.1415
484.0000,0.0725,0.1408
485.0000,0.0710,0.1408
486.0000,0.0686,0.1408
487.0000,0.0666,0.1399
488.0000,0.0651,0.1384
489.0000,0.0636,0.1380
490.0000,0.0621,0.1380
491.0000,0.0595,0.1380
492.0000,0.0589,0.1380
493.0000,0.0564,0.1367
494.0000,0.0547,0.1365
495.0000,0.0533,0.1352
496.0000,0.0504,0.1351
497.0000,0.0503,0.1351
498.0000,0.0474,0.1351
499.0000,0.0474,0.1350
500.0000,0.0471,0.1337
501.0000,0.0446,0.1335
502.0000,0.0441,0.1322
503.0000,0.0417,0.1322
504.0000,0.0410,0.1322
505.0000,0.0388,0.1322
506.0000,0.0380,0.1318
507.0000,0.0359,0.1308
508.0000,0.0359,0.1303
509.0000,0.0348,0.1293
510.0000,0.0331,0.1293
511.0000,0.0331,0.1293
512.0000,0.0317,0.1293
513.0000,0.0302,0.1293
514.0000,0.0302,0.1293
515.0000,0.0285,0.1285
516.0000,0.0273,0.1270
517.0000,0.0264,0.1265
518.0000,0.0249,0.1265
519.0000,0.0244,0.1265
520.0000,0.0244,0.1265
521.0000,0.0233,0.1265
522.0000,0.0218,0.1253
523.0000,0.0216,0.1250
524.0000,0.0216,0.1238
525.0000,0.0203,0.1236
526.0000,0.0188,0.1236
527.0000,0.0187,0.1236
528.0000,0.0187,0.1236
529.0000,0.0186,0.1236
530.0000,0.0172,0.1236
531.0000,0.0171,0.1236
532.0000,0.0158,0.1234
533.0000,0.0158,0.1219
534.0000,0.0155,0.1207
535.0000,0.0144,0.1207
536.0000,0.0140,0.1207
537.0000,0.0129,0.1207
538.0000,0.0129,0.1207
539.0000,0.0129,0.1207
540.0000,0.0129,0.1207
541.0000,0.0129,0.1207
542.0000,0.0123,0.1207
543.0000,0.0115,0.1207
544.0000,0.0115,0.1200
545.0000,0.0107,0.1193
546.0000,0.0101,0.1193
547.0000,0.0101,0.1193
548.0000,0.0101,0.1183
549.0000,0.0101,0.1178
550.0000,0.0101,0.1178
551.0000,0.0090,0.1178
552.0000,0.0086,0.1178
553.0000,0.0086,0.1178
554.0000,0.0086,0.1178
555.0000,0.0074,0.1178
556.0000,0.0072,0.1178
557.0000,0.0072,0.1178
558.0000,0.0072,0.1178
559.0000,0.0072,0.1178
560.0000,0.0072,0.1178
561.0000,0.0072,0.1163
562.0000,0.0070,0.1150
563.0000,0.0057,0.1150
564.0000,0.0057,0.1150
565.0000,0.0057,0.1150
566.0000,0.0054,0.1150
567.0000,0.0043,0.1150
568.0000,0.0043,0.1150
569.0000,0.0043,0.1150
570.0000,0.0043,0.1150
571.0000,0.0043,0.1150
572.0000,0.0043,0.1150
573.0000,0.0043,0.1150
574.0000,0.0043,0.1150
575.0000,0.0043,0.1150
576.0000,0.0035,0.1142
577.0000,0.0029,0.1135
578.0000,0.0029,0.1135
579.0000,0.0029,0.1126
580.0000,0.0029,0.1121
581.0000,0.0029,0.1121
582.0000,0.0029,0.1121
583.0000,0.0017,0.1121
584.0000,0.0014,0.1121
585.0000,0.0014,0.1121
586.0000,0.0014,0.1121
587.0000,0.0014,0.1121
588.0000,0.0014,0.1121
589.0000,0.0014,0.1121
590.0000,0.0014,0.1121
591.0000,0.0014,0.1106
592.0000,0.0014,0.1093
593.0000,0.0014,0.1105
594.0000,0.0014,0.1092
595.0000,0.0012,0.1092
596.0000,0.0000,0.1092
597.0000,0.0000,0.1092
598.0000,0.0000,0.1092
599.0000,0.0000,0.1092
600.0000,0.0000,0.1092
601.0000,0.0000,0.1087
602.0000,0.0000,0.1078
603.0000,0.0000,0.1072
604.0000,-0.0007,0.1064
605.0000,-0.0014,0.1064
606.0000,-0.0014,0.1064
607.0000,-0.0014,0.1064
608.0000,-0.0014,0.1064
609.0000,-0.0014,0.1064
610.0000,-0.0014,0.1054
611.0000,-0.0014,0.1049
612.0000,-0.0014,0.1039
613.0000,-0.0025,0.1035
614.0000,-0.0029,0.1035
615.0000,-0.0029,0.1035
616.0000,-0.0029,0.1035
617.0000,-0.0042,0.1035
618.0000,-0.0043,0.1022
619.0000,-0.0043,0.1020
620.0000,-0.0043,0.1020
621.0000,-0.0043,0.1006
622.0000,-0.0043,0.1006
623.0000,-0.0043,0.1006
624.0000,-0.0043,0.1006
625.0000,-0.0043,0.1006
626.0000,-0.0043,0.1003
627.0000,-0.0043,0.0992
628.0000,-0.0043,0.0992
629.0000,-0.0043,0.0988
630.0000,-0.0043,0.0977
631.0000,-0.0043,0.0977
632.0000,-0.0043,0.0977
633.0000,-0.0043,0.0977
634.0000,-0.0043,0.0971
635.0000,-0.0050,0.0956
636.0000,-0.0057,0.0949
637.0000,-0.0057,0.0949
638.0000,-0.0057,0.0949
639.0000,-0.0057,0.0949
640.0000,-0.0057,0.0949
641.0000,-0.0057,0.0949
642.0000,-0.0057,0.0938
643.0000,-0.0057,0.0934
644.0000,-0.0057,0.0934
645.0000,-0.0057,0.0923
646.0000,-0.0057,0.0920
647.0000,-0.0057,0.0920
648.0000,-0.0057,0.0920
649.0000,-0.0057,0.0920
650.0000,-0.0057,0.0906
651.0000,-0.0057,0.0905
652.0000,-0.0058,0.0905
653.0000,-0.0072,0.0905
654.0000,-0.0072,0.0891
655.0000,-0.0072,0.0891
656.0000,-0.0074,0.0891
657.0000,-0.0086,0.0891
658.0000,-0.0086,0.0891
659.0000,-0.0086,0.0887
660.0000,-0.0086,0.0873
661.0000,-0.0086,0.0862
662.0000,-0.0086,0.0862
663.0000,-0.0086,0.0862
664.0000,-0.0086,0.0862
665.0000,-0.0086,0.0862
666.0000,-0.0086,0.0855
667.0000,-0.0086,0.0848
668.0000,-0.0086,0.0848
669.0000,-0.0086,0.0840
670.0000,-0.0086,0.0834
671.0000,-0.0086,0.0834
672.0000,-0.0086,0.0834
673.0000,-0.0086,0.0834
674.0000,-0.0086,0.0834
675.0000,-0.0086,0.0823
676.0000,-0.0086,0.0819
677.0000,-0.0086,0.0807
678.0000,-0.0099,0.0805
679.0000,-0.0101,0.0805
680.0000,-0.0101,0.0805
681.0000,-0.0101,0.0805
682.0000,-0.0101,0.0791
683.0000,-0.0101,0.0790
684.0000,-0.0101,0.0790
685.0000,-0.0101,0.0776
686.0000,-0.0101,0.0776
687.0000,-0.0101,0.0776
688.0000,-0.0103,0.0776
689.0000,-0.0115,0.0776
690.0000,-0.0115,0.0776
691.0000,-0.0115,0.0772
692.0000,-0.0115,0.0762
693.0000,-0.0115,0.0757
694.0000,-0.0115,0.0747
695.0000,-0.0115,0.0747
696.0000,-0.0115,0.0747
697.0000,-0.0115,0.0747
698.0000,-0.0115,0.0747
699.0000,-0.0115,0.0739
700.0000,-0.0115,0.0733
701.0000,-0.0115,0.0733
702.0000,-0.0115,0.0733
703.0000,-0.0115,0.0723
704.0000,-0.0115,0.0719
705.0000,-0.0115,0.0719
706.0000,-0.0115,0.0719
707.0000,-0.0115,0.0719
708.0000,-0.0115,0.0719
709.0000,-0.0115,0.0719
710.0000,-0.0115,0.0706
711.0000,-0.0115,0.0691
712.0000,-0.0115,0.0704
713.0000,-0.0129,0.0690
714.0000,-0.0129,0.0690
715.0000,-0.0129,0.0690
716.0000,-0.0129,0.0690
717.0000,-0.0129,0.0690
718.0000,-0.0129,0.0690
719.0000,-0.0132,0.0687
720.0000,-0.0144,0.0675
721.0000,-0.0144,0.0675
722.0000,-0.0144,0.0675
723.0000,-0.0144,0.0671
724.0000,-0.0144,0.0661
725.0000,-0.0144,0.0661
726.0000,-0.0144,0.0661
727.0000,-0.0144,0.0661
728.0000,-0.0144,0.0661
729.0000,-0.0144,0.0661
730.0000,-0.0144,0.0661
731.0000,-0.0144,0.0661
732.0000,-0.0144,0.0652
733.0000,-0.0144,0.0647
734.0000,-0.0144,0.0637
735.0000,-0.0144,0.0632
736.0000,-0.0144,0.0632
737.0000,-0.0144,0.0632
738.0000,-0.0144,0.0632
739.0000,-0.0144,0.0632
740.0000,-0.0144,0.0632
741.0000,-0.0144,0.0632
742.0000,-0.0157,0.0619
743.0000,-0.0158,0.0618
744.0000,-0.0158,0.0618
745.0000,-0.0158,0.0617
746.0000,-0.0158,0.0604
747.0000,-0.0158,0.0604
748.0000,-0.0158,0.0604
749.0000,-0.0158,0.0604
750.0000,-0.0158,0.0604
751.0000,-0.0158,0.0604
752.0000,-0.0158,0.0604
753.0000,-0.0158,0.0604
754.0000,-0.0158,0.0604
755.0000,-0.0158,0.0598
756.0000,-0.0158,0.0589
757.0000,-0.0164,0.0583
758.0000,-0.0172,0.0575
759.0000,-0.0172,0.0575
760.0000,-0.0172,0.0575
761.0000,-0.0172,0.0575
762.0000,-0.0172,0.0575
763.0000,-0.0172,0.0575
764.0000,-0.0172,0.0575
765.0000,-0.0172,0.0565
766.0000,-0.0172,0.0561
767.0000,-0.0172,0.0561
768.0000,-0.0172,0.0549
769.0000,-0.0172,0.0546
770.0000,-0.0172,0.0546
771.0000,-0.0172,0.0546
772.0000,-0.0172,0.0546
773.0000,-0.0172,0.0546
774.0000,-0.0172,0.0546
775.0000,-0.0172,0.0546
776.0000,-0.0172,0.0546
777.0000,-0.0172,0.0532
778.0000,-0.0172,0.0532
779.0000,-0.0172,0.0530
780.0000,-0.0172,0.0517
781.0000,-0.0172,0.0517
782.0000,-0.0172,0.0517
783.0000,-0.0172,0.0517
784.0000,-0.0172,0.0517
785.0000,-0.0172,0.0517
786.0000,-0.0172,0.0517
787.0000,-0.0178,0.0517
788.0000,-0.0181,0.0511
789.0000,-0.0179,0.0503
790.0000,-0.0187,0.0503
791.0000,-0.0187,0.0495
792.0000,-0.0187,0.0489
793.0000,-0.0187,0.0489
794.0000,-0.0187,0.0489
795.0000,-0.0187,0.0489
796.0000,-0.0197,0.0489
797.0000,-0.0191,0.0489
798.0000,-0.0198,0.0489
799.0000,-0.0201,0.0489
800.0000,-0.0201,0.0477
